0.160;0.180;0.170;0.180;0.180;0.170;0.170;0.130;0.130;0.100;0.060;0.040;0.010;-0.010;-0.020;-0.020;-0.020;-0.030;0.000;0.000;0.000;0.020;0.030;0.040;0.030;0.070;0.050;0.060;0.050;0.050;0.050;0.050;0.060;0.050;0.050;0.030;0.030;0.030;0.020;0.020;0.020;0.010;0.000;0.000;0.000;-0.010;0.000;-0.010;-0.010;-0.010;-0.010;-0.010;-0.020;-0.020;-0.010;-0.010;0.000;0.060;0.050;0.090;0.110;0.160;0.130;0.050;0.030;-0.090;-0.120;-0.090;-0.080;-0.090;-0.080;-0.080;-0.070;-0.080;0.090;0.450;0.790;-1.170;-1.910;-1.640;-1.280;-0.520;-0.150;-0.030;-0.030;0.010;0.030;0.050;0.060;0.080;0.090;0.100;0.130;0.140;0.160;0.150;0.180;0.200;0.220;0.220;0.260;0.280;0.280;0.300;0.290;0.290;0.270;0.240;0.210;0.170;0.130;0.100;0.050;0.030;0.040;0.050;0.040;0.050;0.060;0.060;0.060;0.060;0.050;0.040;0.070;0.060;0.070;0.060;0.080;0.080;0.080;0.090;0.100;0.100;0.090;0.090;0.090;0.080;0.070;0.070;0.060;0.050;0.050;0.050;0.020;0.040;0.030;0.010;0.010;0.000;0.010;0.000;0.000;0.000;0.000;-0.020;-0.010;-0.010;-0.020;-0.020;-0.020;-0.020;0.020;0.020;0.060;0.060;0.140;0.100;0.020;-0.020;-0.130;-0.130;-0.130;-0.100;-0.100;-0.100;-0.110;-0.110;-0.090;0.160;0.430;0.750;-1.520;-1.930;-1.360;-1.110;-0.440;-0.080;-0.060;-0.040;0.000;0.020;0.050;0.060;0.060;0.090;0.090;0.100;0.120;0.140;0.140;0.160;0.190;0.210;0.210;0.240;0.250;0.250;0.250;0.260;0.240;0.210;0.190;0.170;0.110;0.070;0.050;0.010;0.010;-0.010;0.010;0.000;0.010;0.020;0.010;0.010;0.020;0.020;0.010;0.010;0.020;0.020;0.020;0.020;0.020;0.020;0.020;0.030;0.030;0.020;0.020;0.020;0.030;0.010;0.010;0.000;-0.020;0.000;-0.010;-0.020;-0.020;-0.020;-0.020;-0.030;-0.040;-0.050;-0.050;-0.060;-0.060;-0.060;-0.060;-0.060;-0.060;-0.060;-0.060;-0.020;-0.020;-0.010;0.030;0.080;0.090;0.000;-0.050;-0.130;-0.180;-0.160;-0.150;-0.130;-0.130;-0.140;-0.130;-0.140;-0.040;0.340;0.710;-1.050;-1.870;-1.580;-1.250;-0.540;-0.170;-0.070;-0.070;-0.030;-0.010;0.010;0.020;0.030;0.040;0.040;0.040;0.060;0.080;0.080;0.090;0.100;0.110;0.120;0.140;0.150;0.170;0.150;0.160;0.140;0.120;0.120;0.080;0.040;0.030;0.010;-0.020;-0.030;-0.010;-0.030;-0.010;0.000;0.010;0.010;0.020;0.020;0.010;0.000;0.000;0.010;0.010;0.020;0.010;0.010;0.030;0.030;0.010;0.020;0.010;0.030;0.010;-0.010;0.010;0.010;0.000;-0.010;-0.010;-0.010;-0.020;-0.010;-0.010;-0.020;-0.050;-0.020;-0.030;-0.020;-0.050;-0.030;-0.040;-0.040;-0.010;0.030;-0.020;0.070;0.060;0.130;0.100;0.030;-0.020;-0.120;-0.140;-0.150;-0.110;-0.130;-0.130;-0.140;-0.120;-0.140;0.080;0.340;0.670;-0.810;-1.640;-1.350;-1.110;-0.610;-0.210;-0.110;-0.090;-0.060;-0.030;-0.030;0.000;0.000;0.010;0.020;0.040;0.050;0.040;0.060;0.080;0.080;0.100;0.120;0.140;0.150;0.170;0.170;0.170;0.160;0.150;0.140;0.100;0.100;0.060;0.020;0.000;0.010;-0.020;-0.020;-0.010;-0.020;0.010;0.000;0.000;0.010;0.010;0.010;0.020;0.020;0.030;0.020;0.030;0.030;0.020;0.030;0.020;0.010;0.010;0.010;-0.010;0.000;0.000;0.010;-0.020;0.000;-0.010;-0.020;-0.010;-0.010;-0.020;-0.020;-0.020;-0.020;-0.020;-0.030;-0.020;-0.020;-0.040;-0.020;0.020;0.040;0.040;0.080;0.120;0.150;0.060;0.010;-0.050;-0.140;-0.110;-0.120;-0.110;-0.100;-0.100;-0.080;-0.100;-0.030;0.350;0.610;-0.460;-1.880;-1.900;-1.250;-0.630;-0.260;-0.030;-0.040;0.000;0.020;0.040;0.050;0.070;0.070;0.090;0.100;0.120;0.110;0.150;0.150;0.180;0.190;0.210;0.220;0.240;0.250;0.260;0.260;0.240;0.230;0.190;0.170;0.130;0.090;0.040;0.000;0.000;-0.010;-0.020;-0.020;0.000;0.000;0.010;0.000;0.000;-0.010;0.010;0.000;0.000;0.020;0.010;0.020;0.030;0.030;0.050;0.050;0.050;0.050;0.050;0.040;0.030;0.040;0.020;0.030;0.010;0.020;0.000;0.010;0.010;0.010;-0.010;-0.010;0.000;-0.020;-0.010;-0.010;-0.010;-0.020;-0.010;-0.020;-0.020;-0.020;-0.020;0.020;0.050;0.020;0.090;0.100;0.160;0.070;0.010;-0.050;-0.120;-0.100;-0.100;-0.080;-0.070;-0.090;-0.100;-0.090;-0.050;0.340;0.580;-0.420;-1.840;-1.800;-1.220;-0.570;-0.220;-0.040;-0.030;-0.020;0.010;0.020;0.050;0.050;0.040;0.060;0.080;0.080;0.110;0.110;0.120;0.140;0.140;0.180;0.180;0.210;0.210;0.220;0.220;0.220;0.190;0.180;0.160;0.140;0.090;0.040;0.020;0.000;0.010;0.020;0.010;0.020;0.030;0.030;0.040;0.030;0.040;0.030;0.030;0.020;0.040;0.040;0.030;0.040;0.040;0.040;0.040;0.050;0.060;0.040;0.040;0.040;0.020;0.020;0.020;0.010;0.010;0.000;-0.010;-0.020;-0.020;-0.010;-0.020;-0.030;-0.020;-0.030;-0.030;-0.040;-0.030;-0.030;-0.040;-0.050;-0.050;-0.030;-0.040;0.010;0.030;0.010;0.060;0.090;0.140;0.040;-0.010;-0.070;-0.140;-0.120;-0.100;-0.080;-0.080;-0.100;-0.060;-0.100;-0.050;0.340;0.590;-0.410;-1.790;-1.750;-1.160;-0.560;-0.210;-0.010;-0.010;0.010;0.040;0.050;0.070;0.090;0.080;0.090;0.090;0.100;0.110;0.130;0.130;0.140;0.160;0.160;0.190;0.180;0.200;0.210;0.210;0.190;0.170;0.160;0.150;0.120;0.090;0.050;0.030;0.010;0.020;0.020;0.020;0.040;0.030;0.030;0.020;0.050;0.040;0.040;0.040;0.040;0.040;0.040;0.060;0.060;0.070;0.050;0.070;0.070;0.060;0.060;0.070;0.050;0.060;0.030;0.020;0.020;0.030;0.020;0.010;0.020;0.010;0.000;0.000;0.000;0.010;-0.020;-0.010;-0.010;-0.020;-0.020;-0.020;-0.010;-0.020;-0.020;0.030;0.050;0.010;0.090;0.130;0.140;0.070;0.020;-0.050;-0.110;-0.090;-0.090;-0.090;-0.100;-0.100;-0.090;-0.120;-0.060;0.260;0.560;-0.050;-1.590;-1.530;-1.150;-0.620;-0.300;-0.040;-0.050;-0.030;0.000;0.030;0.020;0.040;0.060;0.080;0.070;0.090;0.100;0.090;0.130;0.130;0.150;0.140;0.160;0.180;0.180;0.190;0.190;0.190;0.170;0.170;0.160;0.130;0.120;0.090;0.060;0.030;0.030;0.020;0.010;0.040;0.030;0.030;0.040;0.030;0.050;0.050;0.060;0.060;0.050;0.070;0.050;0.050;0.050;0.060;0.050;0.040;0.040;0.040;0.020;0.020;0.030;0.020;0.010;0.020;0.010;0.020;0.010;0.010;0.000;0.010;0.000;0.010;0.010;0.000;0.000;0.000;0.000;-0.010;0.000;0.010;0.040;0.090;0.050;0.130;0.100;0.200;0.100;0.050;0.000;-0.110;-0.100;-0.110;-0.080;-0.060;-0.090;-0.090;-0.080;-0.070;0.250;0.500;0.430;-1.720;-1.890;-1.190;-0.790;-0.350;-0.020;0.000;0.000;0.020;0.050;0.060;0.070;0.100;0.110;0.110;0.120;0.140;0.140;0.160;0.180;0.190;0.200;0.220;0.250;0.250;0.260;0.260;0.260;0.240;0.220;0.220;0.170;0.120;0.080;0.050;0.020;0.010;0.010;0.030;0.030;0.040;0.040;0.050;0.040;0.060;0.050;0.040;0.040;0.050;0.040;0.040;0.050;0.050;0.040;0.050;0.040;0.040;0.040;0.040;0.030;0.020;0.010;0.000;-0.010;-0.010;-0.010;-0.010;-0.020;-0.020;-0.030;-0.020;-0.040;-0.040;-0.040;-0.050;-0.050;-0.050;-0.050;-0.070;-0.060;-0.040;0.020;-0.020;0.050;0.060;0.130;0.030;-0.020;-0.070;-0.180;-0.160;-0.150;-0.130;-0.130;-0.130;-0.140;-0.130;-0.120;0.210;0.440;0.550;-1.750;-1.930;-1.220;-0.940;-0.380;-0.040;-0.050;-0.020;0.010;0.020;0.020;0.050;0.050;0.060;0.080;0.090;0.090;0.100;0.110;0.130;0.140;0.160;0.180;0.200;0.210;0.230;0.230;0.220;0.210;0.180;0.150;0.130;0.100;0.050;0.010;-0.010;-0.010;-0.010;-0.020;0.010;0.020;0.040;0.040;0.040;0.040;0.040;0.040;0.040;0.030;0.050;0.050;0.040;0.050;0.080;0.070;0.080;0.080;0.080;0.070;0.060;0.060;0.070;0.050;0.040;0.040;0.040;0.020;0.050;0.030;0.020;0.000;0.020;0.010;-0.010;0.000;0.000;-0.030;-0.020;-0.030;-0.020;-0.030;-0.020;-0.010;0.030;0.010;0.040;0.070;0.140;0.100;0.040;-0.010;-0.130;-0.140;-0.120;-0.120;-0.120;-0.110;-0.110;-0.100;-0.110;0.030;0.340;0.710;-0.980;-1.840;-1.580;-1.260;-0.520;-0.170;-0.060;-0.050;-0.030;-0.010;0.000;0.020;0.040;0.040;0.070;0.060;0.080;0.100;0.110;0.120;0.130;0.150;0.150;0.180;0.180;0.200;0.200;0.190;0.200;0.180;0.160;0.130;0.120;0.070;0.030;0.000;-0.010;-0.020;-0.010;0.000;0.020;0.010;0.030;0.030;0.030;0.040;0.050;0.050;0.040;0.050;0.040;0.070;0.060;0.070;0.060;0.060;0.060;0.060;0.040;0.040;0.040;0.040;0.030;0.000;0.020;0.000;-0.010;0.000;0.010;-0.010;-0.010;-0.020;-0.020;-0.020;-0.040;-0.020;-0.020;-0.030;-0.020;-0.030;-0.040;-0.030;0.000;0.040;0.000;0.080;0.060;0.160;0.080;0.030;-0.010;-0.150;-0.100;-0.110;-0.100;-0.080;-0.110;-0.090;-0.090;-0.090;0.230;0.490;0.600;-1.550;-1.700;-1.110;-0.800;-0.420;-0.040;-0.050;-0.010;0.010;0.020;0.030;0.040;0.070;0.060;0.070;0.090;0.080;0.090;0.100;0.110;0.110;0.140;0.140;0.150;0.140;0.140;0.140;0.140;0.130;0.110;0.090;0.070;0.060;0.020;0.020;0.010;-0.010;-0.030;-0.020;-0.020;0.010;-0.010;0.000;-0.010;-0.010;-0.010;-0.010;-0.010;-0.010;-0.020;-0.010;-0.010;-0.020;0.000;0.010;-0.010;-0.020;-0.030;-0.010;-0.020;-0.030;-0.020;-0.010;-0.020;-0.020;-0.020;-0.030;-0.020;-0.020;-0.040;-0.040;-0.030;-0.030;-0.030;-0.040;-0.040;-0.050;-0.040;-0.040;-0.030;-0.030;0.030;-0.010;0.060;0.040;0.150;0.090;0.020;-0.020;-0.120;-0.130;-0.130;-0.100;-0.110;-0.120;-0.130;-0.110;-0.120;0.150;0.440;0.730;-1.120;-1.580;-1.230;-0.900;-0.540;-0.090;-0.060;-0.050;-0.020;0.010;0.030;0.040;0.060;0.050;0.080;0.080;0.100;0.120;0.130;0.140;0.180;0.180;0.190;0.230;0.250;0.250;0.260;0.270;0.250;0.240;0.220;0.200;0.150;0.100;0.080;0.050;0.040;0.030;0.030;0.030;0.040;0.040;0.050;0.050;0.060;0.050;0.070;0.050;0.080;0.070;0.070;0.080;0.070;0.070;0.070;0.070;0.060;0.050;0.050;0.050;0.040;0.030;0.050;0.030;0.030;0.020;0.020;0.020;0.020;0.030;0.030;0.020;0.020;0.020;0.010;0.010;0.010;0.010;0.010;0.000;0.000;0.000;-0.010;0.000;0.020;0.060;0.050;0.080;0.100;0.180;0.130;0.070;0.010;-0.100;-0.100;-0.090;-0.080;-0.080;-0.060;-0.090;-0.080;-0.070;0.110;0.420;0.820;-1.300;-1.870;-1.530;-1.220;-0.430;-0.070;-0.020;0.010;0.020;0.030;0.060;0.080;0.090;0.090;0.110;0.130;0.140;0.140;0.170;0.160;0.180;0.200;0.210;0.230;0.230;0.270;0.250;0.260;0.260;0.240;0.220;0.190;0.160;0.120;0.070;0.040;0.040;0.020;0.020;0.030;0.040;0.030;0.040;0.040;0.040;0.040;0.030;0.030;0.040;0.040;0.030;0.050;0.050;0.050;0.050;0.050;0.060;0.060;0.060;0.040;0.060;0.060;0.030;0.050;0.040;0.030;0.020;0.020;0.020;0.000;0.020;0.000;0.010;0.000;0.010;0.000;0.010;0.010;0.010;0.000;0.000;0.000;0.000;0.010;0.060;0.060;0.050;0.100;0.140;0.160;0.060;0.030;-0.080;-0.120;-0.110;-0.090;-0.080;-0.080;-0.100;-0.090;-0.100;0.020;0.390;0.760;-1.100;-1.850;-1.540;-1.230;-0.510;-0.140;-0.040;-0.030;-0.020;0.030;0.040;0.060;0.070;0.090;0.090;0.100;0.120;0.130;0.150;0.150;0.170;0.190;0.180;0.200;0.210;0.230;0.240;0.240;0.230;0.210;0.190;0.190;0.140;0.090;0.080;0.040;0.010;0.020;0.020;0.030;0.010;0.030;0.050;0.030;0.040;0.050;0.040;0.030;0.040;0.050;0.040;0.050;0.070;0.060;0.050;0.060;0.070;0.070;0.060;0.060;0.040;0.030;0.020;0.020;0.000;-0.010;0.000;-0.010;-0.020;-0.030;-0.040;-0.040;-0.050;-0.030;-0.040;-0.050;-0.060;-0.060;-0.070;-0.080;-0.070;-0.090;-0.090;-0.080;-0.050;-0.010;-0.040;0.040;0.040;0.100;0.010;-0.030;-0.070;-0.190;-0.160;-0.170;-0.140;-0.140;-0.130;-0.130;-0.140;-0.110;0.240;0.470;0.210;-1.740;-1.800;-1.150;-0.750;-0.380;-0.070;-0.080;-0.030;-0.020;-0.010;0.000;0.020;0.040;0.030;0.060;0.080;0.090;0.100;0.120;0.140;0.120;0.130;0.150;0.150;0.160;0.160;0.180;0.130;0.140;0.110;0.080;0.060;0.080;0.030;0.010;-0.010;-0.020;-0.030;-0.030;-0.010;-0.010;-0.010;-0.010;-0.010;-0.030;-0.010;0.010;0.020;0.000;-0.010;0.010;0.020;0.010;0.020;0.020;0.040;0.020;0.020;0.010;0.000;0.020;-0.010;0.000;-0.030;-0.030;0.000;0.000;-0.020;-0.010;-0.020;-0.030;-0.020;-0.030;-0.020;-0.040;-0.030;-0.030;-0.030;-0.030;-0.040;-0.010;0.040;0.000;0.080;0.080;0.160;0.100;0.050;0.000;-0.110;-0.110;-0.120;-0.090;-0.100;-0.110;-0.120;-0.100;-0.120;0.150;0.470;0.690;-1.180;-1.540;-1.190;-0.850;-0.530;-0.090;-0.060;-0.030;-0.010;0.010;0.040;0.040;0.050;0.070;0.060;0.070;0.090;0.100;0.100;0.130;0.130;0.150;0.160;0.190;0.200;0.220;0.200;0.210;0.210;0.180;0.170;0.150;0.110;0.080;0.050;0.040;0.030;0.040;0.040;0.030;0.030;0.030;0.050;0.050;0.050;0.050;0.050;0.060;0.070;0.070;0.070;0.080;0.070;0.060;0.060;0.060;0.060;0.050;0.050;0.050;0.040;0.020;0.030;0.030;0.010;0.020;0.010;0.000;0.000;0.010;-0.010;-0.010;0.000;-0.020;-0.020;-0.030;-0.010;-0.030;-0.030;-0.030;-0.040;-0.040;-0.030;0.030;0.030;0.050;0.060;0.140;0.140;0.040;0.020;-0.070;-0.120;-0.100;-0.090;-0.070;-0.080;-0.080;-0.070;-0.070;0.090;0.430;0.820;-1.200;-1.890;-1.560;-1.260;-0.470;-0.100;-0.020;-0.020;0.030;0.050;0.050;0.070;0.090;0.090;0.100;0.110;0.130;0.130;0.140;0.160;0.190;0.180;0.220;0.230;0.240;0.260;0.280;0.280;0.260;0.250;0.240;0.210;0.150;0.120;0.070;0.030;0.010;0.020;0.010;0.010;0.020;0.020;0.040;0.020;0.030;0.020;0.030;0.020;0.040;0.020;0.040;0.040;0.040;0.050;0.050;0.050;0.060;0.050;0.060;0.070;0.050;0.060;0.050;0.030;0.020;0.040;0.030;0.020;0.000;0.000;0.000;0.000;0.000;0.010;0.000;-0.010;0.000;0.000;-0.010;-0.010;0.000;-0.010;0.000;0.040;0.060;0.040;0.120;0.140;0.180;0.070;0.050;-0.030;-0.110;-0.080;-0.100;-0.080;-0.070;-0.080;-0.070;-0.080;-0.050;0.360;0.550;-0.240;-1.830;-1.830;-1.170;-0.620;-0.260;-0.020;-0.020;0.020;0.040;0.050;0.060;0.080;0.090;0.090;0.100;0.120;0.120;0.130;0.150;0.180;0.180;0.200;0.220;0.230;0.240;0.260;0.260;0.240;0.220;0.190;0.170;0.130;0.090;0.060;0.030;0.000;0.000;-0.010;-0.010;0.000;0.030;0.000;0.020;0.020;0.010;0.010;0.010;0.020;0.020;0.020;0.010;0.020;0.010;0.030;0.020;0.020;0.020;0.030;0.020;0.000;0.030;0.000;0.000;-0.020;-0.010;-0.040;-0.030;-0.030;-0.040;-0.030;-0.050;-0.050;-0.040;-0.040;-0.040;-0.040;-0.030;-0.030;-0.020;-0.010;0.020;0.040;0.030;0.100;0.100;0.170;0.070;0.040;-0.050;-0.100;-0.090;-0.110;-0.070;-0.060;-0.080;-0.080;-0.090;-0.070;0.330;0.540;-0.150;-1.770;-1.750;-1.140;-0.600;-0.280;-0.020;-0.030;-0.010;0.010;0.040;0.050;0.050;0.070;0.060;0.070;0.080;0.090;0.110;0.100;0.130;0.150;0.140;0.140;0.160;0.160;0.170;0.170;0.160;0.130;0.120;0.100;0.090;0.050;0.020;0.010;0.000;-0.010;0.000;0.000;-0.010;0.020;0.040;0.040;0.030;0.030;0.030;0.040;0.050;0.050;0.050;0.050;0.060;0.070;0.050;0.060;0.060;0.050;0.050;0.040;0.040;0.010;0.030;0.040;0.020;0.020;0.010;0.000;0.000;-0.020;-0.010;-0.010;-0.010;-0.010;-0.010;-0.010;-0.020;0.000;-0.010;-0.020;0.000;0.040;0.060;0.030;0.110;0.150;0.190;0.120;0.090;0.010;-0.080;-0.050;-0.040;-0.080;-0.040;-0.060;-0.070;-0.090;-0.010;0.300;0.610;-0.010;-1.500;-1.440;-1.120;-0.620;-0.340;-0.040;-0.040;-0.030;0.010;0.020;0.020;0.050;0.040;0.060;0.070;0.080;0.070;0.100;0.100;0.110;0.130;0.140;0.160;0.160;0.180;0.170;0.190;0.170;0.180;0.160;0.140;0.120;0.110;0.060;0.040;0.040;0.020;0.010;0.030;0.020;0.030;0.050;0.050;0.070;0.060;0.070;0.080;0.080;0.090;0.100;0.100;0.090;0.090;0.100;0.090;0.090;0.090;0.070;0.070;0.060;0.070;0.060;0.050;0.050;0.040;0.050;0.030;0.040;0.020;0.030;0.020;0.030;0.030;0.010;0.010;0.020;0.010;0.000;0.010;0.020;0.070;0.050;0.110;0.110;0.200;0.170;0.080;0.040;-0.050;-0.100;-0.070;-0.060;-0.060;-0.050;-0.060;-0.040;-0.050;0.080;0.440;0.770;-0.850;-1.850;-1.670;-1.230;-0.500;-0.140;0.010;0.020;0.050;0.080;0.090;0.100;0.110;0.120;0.140;0.140;0.150;0.170;0.180;0.190;0.220;0.230;0.250;0.260;0.280;0.300;0.300;0.310;0.310;0.290;0.270;0.250;0.210;0.160;0.130;0.090;0.080;0.040;0.060;0.060;0.060;0.080;0.090;0.070;0.080;0.070;0.070;0.070;0.080;0.070;0.080;0.070;0.080;0.090;0.070;0.080;0.090;0.090;0.090;0.090;0.090;0.070;0.070;0.060;0.050;0.030;0.040;0.020;0.020;0.010;0.010;0.000;0.000;0.000;0.000;0.000;-0.020;-0.010;-0.020;-0.010;0.000;0.040;0.060;0.040;0.120;0.120;0.180;0.080;0.040;-0.050;-0.140;-0.110;-0.120;-0.100;-0.090;-0.100;-0.090;-0.110;-0.090;0.260;0.450;0.370;-1.820;-1.940;-1.190;-0.840;-0.360;-0.030;-0.040;-0.020;0.000;0.040;0.050;0.060;0.080;0.070;0.080;0.090;0.100;0.110;0.140;0.140;0.150;0.170;0.190;0.190;0.210;0.220;0.220;0.210;0.200;0.190;0.160;0.130;0.100;0.050;0.010;0.010;-0.010;-0.010;-0.010;0.010;0.010;0.010;0.010;0.020;0.000;0.010;0.010;0.010;0.010;0.010;0.020;0.030;0.040;0.030;0.040;0.030;0.040;0.050;0.040;0.020;0.030;0.030;0.020;0.020;0.030;0.010;0.010;0.010;0.000;0.000;-0.010;-0.010;-0.010;-0.030;-0.010;-0.020;-0.020;-0.030;-0.010;0.040;0.050;0.050;0.100;0.200;0.140;0.090;0.050;-0.080;-0.090;-0.100;-0.090;-0.080;-0.090;-0.100;-0.100;-0.100;0.050;0.380;0.720;-1.190;-1.870;-1.490;-1.230;-0.500;-0.140;-0.070;-0.060;-0.050;-0.010;0.010;0.020;0.010;0.030;0.040;0.050;0.070;0.070;0.090;0.100;0.100;0.120;0.140;0.150;0.160;0.170;0.140;0.160;0.160;0.140;0.110;0.100;0.080;0.060;0.020;-0.010;0.000;0.000;0.000;0.000;0.000;0.020;0.010;0.040;0.030;0.030;0.010;0.040;0.030;0.030;0.030;0.030;0.020;0.030;0.030;0.020;0.030;0.030;0.010;0.020;-0.010;0.020;0.010;-0.010;-0.020;-0.020;-0.030;-0.040;-0.040;-0.040;-0.060;-0.040;-0.060;-0.040;-0.060;-0.060;-0.060;-0.060;-0.070;-0.060;-0.020;0.010;-0.010;0.070;0.090;0.120;0.100;0.030;-0.020;-0.110;-0.130;-0.110;-0.120;-0.120;-0.130;-0.120;-0.150;-0.150;0.150;0.450;0.570;-1.340;-1.580;-1.200;-0.860;-0.570;-0.130;-0.100;-0.060;-0.070;-0.040;-0.040;-0.010;-0.010;0.010;0.010;0.020;0.030;0.050;0.060;0.060;0.090;0.100;0.100;0.120;0.120;0.130;0.130;0.120;0.160;0.140;0.120;0.090;0.080;0.070;0.020;0.010;0.000;-0.020;-0.030;-0.020;-0.030;-0.030;-0.010;0.000;-0.020;-0.010;0.020;0.020;0.020;0.020;0.030;0.020;0.010;0.020;0.020;0.010;0.010;0.000;-0.010;-0.010;0.010;0.000;-0.020;0.000;-0.020;-0.020;-0.030;-0.020;-0.020;-0.030;-0.020;-0.040;-0.020;-0.030;-0.020;-0.020;0.040;0.020;0.070;0.090;0.180;0.120;0.100;0.030;-0.070;-0.080;-0.080;-0.090;-0.070;-0.080;-0.080;-0.090;-0.060;0.230;0.540;0.690;-1.640;-1.920;-1.370;-1.100;-0.480;-0.050;-0.030;0.000;0.020;0.020;0.060;0.070;0.070;0.070;0.090;0.100;0.120;0.140;0.160;0.180;0.190;0.220;0.240;0.250;0.270;0.290;0.290;0.290;0.290;0.260;0.250;0.210;0.170;0.120;0.070;0.040;0.040;0.010;0.020;0.020;0.030;0.010;0.040;0.030;0.040;0.030;0.030;0.040;0.030;0.050;0.060;0.060;0.060;0.070;0.070;0.070;0.070;0.080;0.060;0.060;0.060;0.050;0.050;0.050;0.040;0.040;0.030;0.030;0.020;0.000;0.020;0.000;0.000;-0.010;0.000;-0.020;0.000;0.000;0.040;0.060;0.040;0.090;0.190;0.140;0.100;0.060;-0.060;-0.110;-0.080;-0.070;-0.070;-0.080;-0.080;-0.090;-0.090;0.040;0.410;0.710;-1.080;-1.980;-1.710;-1.300;-0.500;-0.150;-0.030;-0.030;0.010;0.020;0.050;0.070;0.080;0.090;0.090;0.100;0.120;0.130;0.140;0.170;0.180;0.180;0.200;0.220;0.240;0.260;0.270;0.250;0.230;0.240;0.210;0.180;0.150;0.100;0.060;0.030;0.010;0.000;0.000;0.000;0.020;0.020;0.010;0.030;0.040;0.020;0.010;0.030;0.020;0.020;0.040;0.040;0.050;0.050;0.060;0.060;0.070;0.060;0.060;0.060;0.060;0.060;0.060;0.030;0.040;0.030;0.030;0.010;0.010;0.010;0.020;-0.010;0.000;-0.010;-0.010;-0.010;0.010;0.020;0.060;0.040;0.100;0.180;0.150;0.130;0.050;-0.050;-0.080;-0.110;-0.080;-0.090;-0.090;-0.100;-0.100;-0.110;-0.050;0.320;0.560;-0.610;-1.930;-1.860;-1.270;-0.600;-0.250;-0.050;-0.040;0.000;0.000;0.040;0.040;0.060;0.050;0.080;0.100;0.100;0.090;0.110;0.130;0.130;0.150;0.160;0.180;0.190;0.200;0.200;0.200;0.180;0.170;0.140;0.110;0.090;0.040;0.020;-0.010;-0.030;-0.050;-0.030;-0.020;-0.010;-0.010;-0.010;-0.010;0.000;0.000;0.000;0.000;-0.010;0.000;0.010;0.020;0.010;0.030;0.030;0.020;0.020;0.030;0.020;0.020;0.020;0.020;0.010;-0.010;-0.010;0.000;0.000;-0.030;-0.010;-0.030;-0.040;-0.030;-0.040;-0.040;-0.060;-0.040;-0.050;-0.050;-0.050;-0.030;0.010;0.010;0.000;0.070;0.140;0.120;0.070;0.040;-0.060;-0.120;-0.120;-0.120;-0.120;-0.120;-0.140;-0.150;-0.150;-0.100;0.270;0.510;-0.280;-1.830;-1.720;-1.260;-0.650;-0.310;-0.090;-0.080;-0.050;-0.030;-0.020;0.000;0.010;0.030;0.020;0.040;0.050;0.050;0.070;0.090;0.100;0.090;0.100;0.120;0.130;0.140;0.140;0.150;0.140;0.110;0.110;0.100;0.110;0.070;0.040;0.020;0.000;0.000;0.000;-0.030;-0.020;0.000;-0.020;0.000;0.000;-0.020;0.000;0.000;0.000;0.010;-0.010;0.020;0.010;0.010;0.000;0.010;0.010;0.000;0.010;-0.020;-0.020;-0.010;-0.030;-0.030;-0.040;-0.030;-0.050;-0.060;-0.050;-0.050;-0.090;-0.060;-0.070;-0.080;-0.070;-0.060;-0.030;-0.040;0.010;0.040;0.100;0.070;0.020;-0.020;-0.130;-0.130;-0.130;-0.160;-0.170;-0.170;-0.160;-0.190;-0.170;0.140;0.500;0.250;-1.550;-1.600;-1.330;-0.800;-0.510;-0.120;-0.130;-0.080;-0.070;-0.050;-0.030;-0.010;-0.010;0.010;0.030;0.030;0.050;0.070;0.080;0.100;0.140;0.140;0.170;0.190;0.210;0.230;0.240;0.240;0.240;0.220;0.210;0.180;0.150;0.110;0.090;0.070;0.040;0.030;0.010;0.020;0.020;0.030;0.020;0.030;0.020;0.030;0.060;0.070;0.050;0.070;0.070;0.070;0.060;0.060;0.070;0.040;0.050;0.020;0.020;0.010;0.020;0.010;0.000;-0.010;-0.010;-0.020;-0.030;-0.010;-0.020;-0.020;-0.030;-0.020;-0.040;-0.030;-0.030;-0.020;-0.030;-0.020;0.040;0.010;0.070;0.100;0.150;0.110;0.020;-0.010;-0.090;-0.110;-0.110;-0.090;-0.100;-0.110;-0.090;-0.100;-0.070;0.310;0.460;0.190;-1.980;-2.140;-1.280;-0.890;-0.320;-0.010;0.000;0.030;0.050;0.090;0.090;0.100;0.130;0.130;0.150;0.180;0.180;0.190;0.220;0.230;0.260;0.280;0.300;0.310;0.330;0.340;0.350;0.360;0.330;0.320;0.290;0.250;0.200;0.150;0.100;0.080;0.060;0.060;0.040;0.050;0.070;0.060;0.070;0.060;0.050;0.050;0.060;0.050;0.070;0.060;0.060;0.070;0.080;0.070;0.080;0.100;0.080;0.100;0.090;0.100;0.090;0.100;0.080;0.080;0.060;0.040;0.060;0.040;0.040;0.040;0.020;0.010;0.020;0.010;0.010;0.010;0.040;0.070;0.050;0.110;0.140;0.200;0.150;0.080;0.020;-0.080;-0.080;-0.070;-0.070;-0.060;-0.070;-0.080;-0.070;-0.030;0.280;0.490;0.390;-1.880;-2.030;-1.200;-0.890;-0.320;0.010;0.010;0.030;0.050;0.080;0.070;0.110;0.100;0.100;0.130;0.120;0.140;0.160;0.180;0.180;0.200;0.230;0.230;0.260;0.280;0.270;0.280;0.260;0.260;0.230;0.230;0.170;0.160;0.110;0.070;0.060;0.050;0.050;0.040;0.060;0.050;0.070;0.060;0.080;0.050;0.070;0.070;0.070;0.070;0.080;0.080;0.100;0.080;0.090;0.110;0.090;0.110;0.110;0.100;0.070;0.090;0.080;0.080;0.060;0.060;0.030;0.030;0.020;0.040;0.020;0.030;0.020;0.020;0.000;0.020;0.020;0.010;0.030;0.020;0.020;0.010;0.030;0.080;0.050;0.110;0.110;0.210;0.130;0.070;0.030;-0.090;-0.100;-0.090;-0.060;-0.060;-0.070;-0.060;-0.070;-0.060;0.200;0.460;0.680;-1.710;-1.950;-1.220;-0.970;-0.390;-0.030;-0.060;-0.010;0.020;0.040;0.040;0.050;0.060;0.060;0.090;0.100;0.110;0.120;0.140;0.130;0.130;0.130;0.160;0.150;0.170;0.170;0.160;0.160;0.140;0.130;0.100;0.070;0.060;0.020;0.000;0.010;-0.020;-0.020;-0.020;0.000;0.010;0.030;0.030;0.010;0.010;0.010;0.010;0.020;0.010;0.010;0.030;0.030;0.030;0.060;0.050;0.040;0.030;0.030;0.020;0.030;0.030;0.010;0.010;0.000;-0.020;0.000;-0.020;-0.010;-0.010;-0.030;-0.040;-0.050;-0.060;-0.040;-0.050;-0.060;-0.060;-0.070;-0.020;0.020;-0.030;0.050;0.060;0.130;0.050;0.010;-0.030;-0.140;-0.110;-0.120;-0.110;-0.120;-0.120;-0.120;-0.120;-0.120;0.200;0.540;0.330;-1.560;-1.590;-1.220;-0.740;-0.440;-0.060;-0.070;-0.030;-0.010;0.010;0.020;0.040;0.050;0.060;0.060;0.080;0.080;0.100;0.100;0.140;0.140;0.150;0.180;0.190;0.190;0.220;0.220;0.210;0.200;0.190;0.170;0.130;0.100;0.080;0.040;0.010;0.010;0.000;-0.010;0.000;0.000;0.010;0.010;0.000;0.020;0.040;0.030;0.040;0.050;0.040;0.040;0.060;0.040;0.060;0.050;0.050;0.040;0.030;0.040;0.030;0.020;0.020;0.030;0.020;0.010;0.030;0.020;0.000;0.020;0.020;0.000;0.010;0.010;-0.010;-0.020;-0.020;-0.030;-0.020;0.020;0.030;0.030;0.080;0.110;0.120;0.040;-0.010;-0.080;-0.140;-0.130;-0.130;-0.100;-0.120;-0.120;-0.100;-0.120;-0.050;0.330;0.530;-0.450;-2.000;-2.010;-1.270;-0.660;-0.260;-0.040;-0.030;-0.010;0.010;0.040;0.050;0.040;0.070;0.070;0.080;0.080;0.110;0.120;0.140;0.150;0.170;0.190;0.190;0.230;0.240;0.250;0.250;0.250;0.220;0.200;0.180;0.140;0.100;0.060;0.030;0.000;-0.010;-0.010;0.000;0.010;0.030;0.030;0.020;0.020;0.020;0.020;0.030;0.010;0.030;0.030;0.030;0.040;0.030;0.040;0.040;0.040;0.040;0.040;0.040;0.050;0.030;0.030;0.030;0.010;0.010;-0.010;0.000;-0.030;-0.030;-0.030;-0.030;-0.040;-0.030;-0.040;-0.040;-0.050;-0.010;0.030;0.010;0.070;0.070;0.150;0.070;0.020;-0.030;-0.130;-0.140;-0.120;-0.100;-0.100;-0.120;-0.100;-0.120;-0.110;0.150;0.410;0.710;-1.660;-1.990;-1.370;-1.160;-0.450;-0.080;-0.070;-0.050;-0.030;0.010;0.010;0.040;0.040;0.040;0.070;0.080;0.080;0.090;0.110;0.120;0.140;0.140;0.160;0.170;0.190;0.200;0.200;0.180;0.160;0.150;0.120;0.080;0.040;0.010;-0.010;-0.030;-0.040;-0.040;-0.050;-0.030;-0.020;-0.010;-0.040;-0.020;-0.030;-0.040;-0.040;-0.020;-0.020;-0.030;-0.030;-0.020;-0.010;-0.010;0.010;0.000;-0.010;0.000;-0.010;-0.020;-0.010;-0.020;-0.030;-0.030;-0.040;-0.040;-0.040;-0.040;-0.040;-0.040;-0.070;-0.060;-0.060;-0.050;-0.040;-0.050;-0.060;-0.050;0.020;-0.010;0.040;0.050;0.120;0.100;0.010;-0.020;-0.110;-0.140;-0.150;-0.140;-0.130;-0.140;-0.170;-0.120;-0.130;-0.040;0.300;0.580;-0.580;-1.710;-1.510;-1.220;-0.660;-0.290;-0.090;-0.090;-0.070;-0.050;-0.020;-0.030;-0.010;0.030;0.030;0.040;0.050;0.050;0.060;0.070;0.090;0.100;0.110;0.110;0.120;0.130;0.130;0.160;0.120;0.130;0.100;0.110;0.080;0.060;0.050;0.010;0.000;0.010;0.000;-0.030;-0.010;-0.010;0.010;0.020;0.020;0.030;0.040;0.000;0.110;0.170;0.400;0.670;0.560;-0.400;-1.100;-1.070;-0.870;-0.150;1.070;2.590;2.560;1.540;0.720;-0.200;0.020;-0.260;-0.100;-0.080;-0.090;-0.120;-0.130;-0.140;-0.140;-0.160;-0.190;-0.180;-0.170;-0.170;-0.230;-0.180;-0.220;-0.170;-0.270;-0.300;-0.330;-0.340;-0.350;-0.240;-0.180;-0.070;-0.040;0.040;0.080;0.110;0.090;0.080;0.050;0.020;0.000;-0.010;-0.010;-0.020;-0.010;-0.010;-0.020;-0.020;-0.010;0.000;-0.020;-0.010;0.090;0.410;0.690;-0.450;-1.900;-1.470;-1.120;-0.390;-0.050;0.030;0.030;0.040;0.040;0.040;0.050;0.070;0.050;0.080;0.080;0.080;0.090;0.110;0.120;0.130;0.140;0.160;0.160;0.180;0.170;0.170;0.150;0.150;0.130;0.120;0.080;0.080;0.060;0.030;0.040;0.030;0.030;0.030;0.040;0.050;0.050;0.060;0.050;0.060;0.060;0.070;0.080;0.080;0.060;0.070;0.060;0.050;0.050;0.050;0.020;0.030;0.030;0.060;0.070;0.050;0.130;0.130;0.210;0.100;0.060;0.010;-0.090;-0.110;-0.090;-0.090;-0.070;-0.100;-0.090;-0.080;-0.080;0.190;0.470;0.770;-1.540;-1.910;-1.320;-1.050;-0.440;-0.030;-0.020;0.020;0.030;0.050;0.070;0.080;0.100;0.110;0.110;0.120;0.150;0.160;0.160;0.180;0.210;0.220;0.220;0.240;0.250;0.260;0.250;0.280;0.250;0.240;0.230;0.200;0.140;0.090;0.080;0.040;0.030;0.020;0.010;0.020;0.020;0.040;0.020;0.010;0.040;0.030;0.030;0.040;0.060;0.060;0.070;0.070;0.080;0.070;0.030;-0.100;0.070;0.140;0.120;-0.020;-0.120;0.790;2.390;2.540;2.370;2.890;2.740;3.420;2.900;2.070;0.620;0.270;0.100;-0.120;-0.140;-0.160;-0.240;-0.230;-0.280;-0.210;-0.320;-0.390;-0.500;-0.610;-0.700;-0.770;-0.810;-0.880;-0.950;-1.040;-1.100;-1.140;-1.130;-1.100;-1.000;-0.890;-0.730;-0.570;-0.410;-0.250;-0.150;-0.070;-0.040;0.000;0.000;0.020;0.000;-0.010;0.010;0.010;0.020;0.010;0.020;0.010;0.020;0.010;0.030;0.010;0.010;0.000;0.000;0.000;-0.010;-0.020;-0.020;-0.020;-0.020;-0.020;-0.030;-0.020;-0.030;-0.030;-0.030;-0.030;-0.020;-0.030;-0.040;-0.030;-0.030;-0.030;-0.030;-0.030;-0.030;-0.030;-0.030;-0.040;-0.030;-0.040;-0.040;-0.040;-0.060;-0.060;-0.050;-0.060;-0.060;-0.040;-0.060;-0.060;-0.070;-0.050;-0.050;-0.060;-0.050;-0.060;-0.060;-0.070;-0.060;-0.060;-0.070;-0.070;-0.060;-0.060;-0.060;-0.050;-0.030;0.010;-0.010;0.050;0.120;0.110;0.100;0.030;-0.050;-0.080;-0.110;-0.080;-0.090;-0.090;-0.100;-0.090;-0.090;0.010;0.350;0.760;-1.010;-1.720;-1.410;-1.140;-0.500;-0.150;-0.080;-0.040;-0.030;0.000;0.030;0.050;0.070;0.070;0.060;0.090;0.110;0.110;0.130;0.150;0.140;0.150;0.170;0.170;0.190;0.210;0.240;0.260;0.280;0.300;0.320;0.340;0.350;0.330;0.270;0.170;0.130;0.050;0.030;0.010;0.000;-0.010;0.010;0.030;0.030;0.020;0.030;0.020;0.020;0.030;0.040;0.060;0.050;0.060;0.080;-0.040;0.050;0.080;0.080;-0.020;-0.200;-0.100;1.170;1.940;2.380;2.220;2.460;2.580;3.310;2.530;1.400;0.300;0.210;-0.110;-0.170;-0.150;-0.200;-0.200;-0.290;-0.340;-0.420;-0.540;-0.630;-0.660;-0.710;-0.780;-0.870;-0.940;-1.050;-1.110;-1.180;-1.280;-1.310;-1.330;-1.250;-1.170;-1.030;-0.880;-0.690;-0.510;-0.380;-0.230;-0.170;-0.100;-0.080;-0.090;-0.070;-0.070;-0.070;-0.070;-0.070;-0.060;-0.080;-0.070;-0.080;-0.070;-0.070;-0.060;-0.060;-0.060;-0.070;-0.050;-0.070;-0.070;-0.060;-0.070;-0.070;-0.070;-0.060;-0.070;-0.070;-0.060;-0.070;-0.070;-0.070;-0.060;-0.070;-0.070;-0.070;-0.050;-0.070;-0.060;-0.070;-0.060;-0.060;-0.060;-0.050;-0.070;-0.080;-0.060;-0.060;-0.060;-0.060;-0.050;-0.060;-0.050;-0.030;-0.050;-0.060;-0.060;-0.070;-0.060;-0.070;-0.060;-0.060;-0.060;-0.070;-0.040;-0.010;0.020;0.030;0.060;0.160;0.110;0.090;0.040;-0.060;-0.070;-0.090;-0.070;-0.070;-0.070;-0.080;-0.100;-0.080;0.210;0.460;0.520;-1.670;-1.830;-1.180;-0.840;-0.380;-0.020;-0.050;0.000;0.030;0.040;0.050;0.070;0.080;0.080;0.110;0.120;0.130;0.150;0.170;0.190;0.200;0.250;0.260;0.280;0.320;0.350;0.390;0.410;0.430;0.440;0.450;0.440;0.410;0.350;0.250;0.160;0.120;0.060;0.040;0.020;0.030;0.030;0.040;0.040;0.030;0.050;0.040;0.050;0.040;0.040;0.050;0.050;0.040;0.060;0.060;0.050;0.050;0.040;0.050;0.040;0.040;0.030;0.020;0.010;0.010;0.000;0.000;0.000;-0.010;-0.010;-0.030;-0.010;0.040;0.000;0.060;0.080;0.160;0.110;0.060;0.010;-0.090;-0.090;-0.090;-0.090;-0.080;-0.090;-0.090;-0.100;-0.090;0.190;0.500;0.780;-1.560;-1.890;-1.270;-1.070;-0.440;-0.060;-0.050;-0.030;0.000;0.020;0.000;0.040;0.030;0.050;0.060;0.080;0.080;0.090;0.120;0.130;0.140;0.160;0.180;0.180;0.200;0.200;0.210;0.210;0.200;0.200;0.180;0.160;0.120;0.090;0.070;0.040;0.020;0.030;0.010;0.030;0.020;0.050;0.020;0.040;0.040;0.030;0.030;0.040;0.040;0.040;0.040;0.040;0.060;0.050;0.050;0.050;0.040;0.040;0.050;0.030;0.030;0.030;0.030;0.000;0.010;0.000;0.000;-0.010;-0.010;-0.010;-0.010;-0.020;-0.030;-0.020;-0.010;0.040;0.030;0.050;0.070;0.180;0.130;0.060;0.030;-0.080;-0.100;-0.110;-0.070;-0.070;-0.090;-0.100;-0.080;-0.070;0.090;0.430;0.760;-1.130;-1.900;-1.530;-1.220;-0.470;-0.110;-0.030;-0.040;0.000;0.020;0.050;0.030;0.050;0.060;0.070;0.070;0.080;0.070;0.090;0.110;0.120;0.140;0.140;0.150;0.160;0.170;0.170;0.170;0.150;0.140;0.140;0.120;0.080;0.050;0.040;0.010;0.010;-0.010;0.000;-0.010;0.000;0.020;0.020;0.010;0.010;0.010;0.000;0.010;0.020;0.020;0.030;0.030;0.020;0.020;0.040;0.030;0.040;0.030;0.040;0.040;0.010;0.000;-0.020;-0.020;-0.020;-0.040;-0.040;-0.050;-0.060;-0.060;-0.050;-0.070;-0.060;0.010;0.000;0.020;0.060;0.170;0.110;0.060;0.030;-0.070;-0.110;-0.120;-0.100;-0.090;-0.110;-0.110;-0.110;-0.110;0.050;0.320;0.670;-0.670;-1.710;-1.370;-1.160;-0.620;-0.210;-0.090;-0.060;-0.030;-0.010;-0.030;0.010;0.020;-0.010;0.020;0.040;0.040;0.040;0.090;0.090;0.090;0.110;0.120;0.130;0.130;0.130;0.150;0.160;0.160;0.150;0.150;0.130;0.120;0.100;0.060;0.050;0.050;0.030;0.030;0.030;0.020;0.030;0.020;0.040;0.020;0.050;0.040;0.050;0.050;0.040;0.050;0.050;0.040;0.040;0.040;0.030;0.020;0.010;0.010;-0.010;0.000;0.000;-0.010;-0.020;-0.020;-0.020;-0.020;-0.030;-0.030;-0.010;-0.030;-0.030;-0.030;-0.030;-0.030;0.030;0.030;0.020;0.070;0.120;0.110;0.040;0.010;-0.070;-0.140;-0.120;-0.110;-0.110;-0.110;-0.120;-0.120;-0.110;-0.050;0.310;0.630;-0.400;-1.870;-1.790;-1.290;-0.630;-0.270;-0.020;-0.030;0.000;0.020;0.040;0.050;0.080;0.080;0.080;0.100;0.120;0.130;0.160;0.170;0.190;0.200;0.230;0.250;0.270;0.290;0.310;0.310;0.300;0.290;0.280;0.240;0.200;0.160;0.120;0.080;0.060;0.050;0.060;0.050;0.060;0.050;0.050;0.050;0.050;0.050;0.050;0.060;0.060;0.060;0.060;0.070;0.090;0.090;0.100;0.100;0.090;0.090;0.100;0.080;0.080;0.080;0.070;0.050;0.060;0.060;0.060;0.040;0.040;0.030;0.030;0.020;0.030;0.020;0.020;0.010;0.020;0.030;0.060;0.080;0.110;0.120;0.180;0.160;0.080;0.040;-0.070;-0.100;-0.080;-0.070;-0.070;-0.060;-0.080;-0.060;-0.060;0.060;0.450;0.760;-0.960;-1.930;-1.700;-1.250;-0.470;-0.130;0.010;0.010;0.050;0.070;0.080;0.090;0.100;0.110;0.120;0.130;0.130;0.140;0.150;0.160;0.180;0.200;0.190;0.200;0.240;0.230;0.250;0.240;0.230;0.200;0.200;0.160;0.140;0.100;0.070;0.060;0.050;0.030;0.050;0.060;0.060;0.060;0.070;0.060;0.040;0.060;0.060;0.060;0.050;0.080;0.050;0.060;0.070;0.080;0.080;0.070;0.080;0.080;0.070;0.080;0.080;0.060;0.040;0.040;0.040;0.030;0.040;0.020;0.020;0.010;0.020;0.010;0.020;0.010;0.010;0.010;0.000;0.020;0.000;0.000;0.000;0.010;0.010;0.060;0.020;0.100;0.090;0.180;0.100;0.040;-0.010;-0.120;-0.100;-0.110;-0.080;-0.080;-0.090;-0.100;-0.080;-0.060;0.230;0.470;0.720;-1.620;-1.940;-1.260;-1.080;-0.390;-0.030;-0.020;0.000;0.020;0.050;0.060;0.060;0.080;0.090;0.100;0.110;0.130;0.140;0.140;0.160;0.170;0.180;0.190;0.210;0.210;0.220;0.210;0.210;0.200;0.170;0.130;0.130;0.090;0.040;0.040;0.010;-0.010;-0.010;0.000;0.000;0.010;0.020;0.020;0.020;0.010;0.010;0.010;0.010;0.010;0.030;0.030;0.030;0.030;0.040;0.030;0.050;0.040;0.050;0.030;0.040;0.010;0.010;0.020;0.010;0.000;-0.020;0.000;-0.010;-0.020;-0.030;-0.030;-0.030;-0.030;-0.030;-0.040;-0.040;-0.050;-0.050;-0.050;-0.060;-0.060;-0.050;-0.060;-0.070;-0.060;-0.030;0.010;-0.020;0.050;0.040;0.120;0.060;0.020;-0.040;-0.150;-0.130;-0.130;-0.110;-0.110;-0.120;-0.110;-0.120;-0.100;0.150;0.460;0.780;-1.450;-1.770;-1.280;-1.040;-0.520;-0.100;-0.080;-0.050;-0.030;-0.020;0.000;0.020;0.030;0.030;0.050;0.040;0.060;0.070;0.080;0.090;0.090;0.100;0.130;0.110;0.130;0.160;0.140;0.130;0.150;0.150;0.110;0.090;0.070;0.040;0.020;0.020;-0.010;-0.010;-0.020;0.000;-0.010;-0.010;0.020;0.010;0.000;-0.020;0.010;0.010;0.000;0.020;0.030;0.030;0.030;0.040;0.020;0.020;0.030;0.030;0.010;-0.010;0.000;0.000;-0.010;-0.030;-0.010;-0.020;-0.040;-0.030;-0.030;-0.050;-0.050;-0.020;-0.060;-0.050;-0.050;-0.050;-0.070;-0.070;-0.070;-0.060;-0.020;0.010;-0.020;0.060;0.050;0.130;0.050;0.000;-0.040;-0.140;-0.120;-0.130;-0.110;-0.110;-0.130;-0.120;-0.110;-0.120;0.160;0.500;0.650;-1.300;-1.640;-1.240;-0.890;-0.540;-0.090;-0.080;-0.050;-0.040;-0.010;-0.010;0.000;0.020;0.040;0.040;0.040;0.050;0.070;0.100;0.110;0.130;0.130;0.160;0.170;0.200;0.200;0.220;0.210;0.210;0.190;0.170;0.150;0.100;0.070;0.040;0.020;0.000;0.000;0.000;0.000;0.000;0.020;0.010;0.010;0.010;0.020;0.020;0.030;0.040;0.040;0.040;0.030;0.040;0.050;0.040;0.030;0.030;0.030;0.030;0.030;0.020;0.000;0.000;0.010;0.000;-0.010;-0.010;-0.010;-0.030;-0.020;-0.030;-0.030;-0.040;-0.030;-0.040;-0.050;-0.050;-0.050;-0.040;-0.060;-0.050;-0.050;-0.060;-0.020;0.030;0.010;0.070;0.080;0.150;0.030;-0.010;-0.060;-0.140;-0.130;-0.130;-0.110;-0.110;-0.130;-0.110;-0.110;-0.100;0.290;0.460;0.140;-1.910;-2.040;-1.190;-0.790;-0.340;-0.050;-0.040;-0.020;0.020;0.020;0.030;0.020;0.050;0.060;0.070;0.090;0.110;0.100;0.120;0.140;0.150;0.180;0.200;0.220;0.220;0.240;0.240;0.260;0.230;0.210;0.190;0.150;0.110;0.050;0.020;-0.010;-0.020;-0.010;-0.020;-0.010;0.000;0.010;0.000;0.010;0.000;0.010;-0.010;-0.010;0.000;0.000;0.000;0.020;0.020;0.030;0.020;0.030;0.030;0.030;0.030;0.030;0.020;0.020;0.010;0.020;0.000;0.010;0.010;0.000;0.000;0.000;-0.020;-0.020;-0.020;-0.020;-0.010;-0.010;-0.010;-0.020;-0.020;-0.010;-0.010;-0.020;-0.020;-0.020;-0.030;-0.030;-0.030;-0.030;-0.030;0.020;0.010;0.040;0.040;0.130;0.080;0.000;-0.040;-0.140;-0.160;-0.160;-0.140;-0.120;-0.140;-0.150;-0.130;-0.130;0.030;0.340;0.730;-1.170;-1.910;-1.640;-1.270;-0.500;-0.170;-0.060;-0.050;-0.020;0.000;0.020;0.050;0.050;0.080;0.090;0.090;0.110;0.140;0.130;0.140;0.160;0.170;0.190;0.210;0.210;0.240;0.230;0.240;0.230;0.200;0.200;0.170;0.130;0.080;0.050;0.020;-0.010;-0.020;-0.010;-0.010;-0.010;0.000;0.020;0.010;0.000;0.010;0.000;-0.010;-0.010;0.010;0.010;0.010;0.030;0.020;0.030;0.050;0.060;0.050;0.060;0.050;0.060;0.050;0.050;0.050;0.030;0.030;0.020;0.020;0.010;0.010;0.010;0.000;0.000;-0.010;-0.010;0.000;-0.020;-0.020;-0.020;-0.030;-0.040;-0.040;-0.030;-0.040;-0.030;-0.040;-0.020;0.020;0.010;0.060;0.070;0.130;0.100;0.030;-0.020;-0.110;-0.130;-0.130;-0.120;-0.110;-0.110;-0.120;-0.110;-0.110;0.010;0.370;0.730;-1.030;-1.800;-1.530;-1.220;-0.540;-0.170;-0.050;-0.050;-0.020;0.020;0.020;0.050;0.040;0.060;0.070;0.070;0.090;0.100;0.110;0.100;0.120;0.140;0.150;0.150;0.160;0.160;0.170;0.150;0.150;0.120;0.110;0.090;0.050;0.010;-0.010;-0.010;-0.030;-0.050;-0.050;-0.030;-0.030;-0.010;-0.010;0.000;-0.020;0.000;0.000;0.000;0.000;0.020;0.020;0.010;0.030;0.020;0.020;0.030;0.040;0.020;0.010;0.020;0.010;0.010;-0.010;0.010;-0.010;-0.010;-0.020;-0.010;-0.020;-0.030;-0.020;-0.030;-0.030;-0.030;-0.040;-0.040;-0.030;-0.050;-0.040;-0.060;-0.040;0.020;0.000;0.000;0.070;0.120;0.130;0.050;0.030;-0.050;-0.130;-0.080;-0.070;-0.090;-0.100;-0.080;-0.080;-0.100;-0.080;0.250;0.590;0.030;-1.540;-1.470;-1.170;-0.650;-0.350;-0.030;-0.050;-0.020;0.020;0.020;0.040;0.060;0.080;0.070;0.080;0.090;0.110;0.120;0.140;0.160;0.160;0.180;0.200;0.200;0.210;0.230;0.220;0.220;0.210;0.190;0.170;0.150;0.120;0.080;0.060;0.040;0.040;0.020;0.030;0.040;0.030;0.030;0.040;0.050;0.040;0.050;0.050;0.050;0.060;0.060;0.050;0.060;0.060;0.060;0.060;0.050;0.040;0.050;0.040;0.030;0.050;0.040;0.040;0.030;0.030;0.030;0.030;0.020;0.020;0.010;0.020;0.020;0.020;0.010;0.000;0.010;0.010;0.000;0.000;0.020;0.000;0.020;0.090;0.060;0.120;0.130;0.210;0.170;0.100;0.070;-0.030;-0.070;-0.060;-0.050;-0.040;-0.040;-0.050;-0.030;-0.030;0.120;0.470;0.820;-1.160;-1.850;-1.580;-1.230;-0.460;-0.080;0.010;0.010;0.040;0.060;0.090;0.080;0.110;0.110;0.130;0.130;0.150;0.160;0.180;0.180;0.210;0.210;0.240;0.260;0.280;0.290;0.310;0.300;0.290;0.280;0.260;0.230;0.190;0.150;0.110;0.080;0.040;0.040;0.040;0.050;0.060;0.070;0.080;0.070;0.090;0.060;0.080;0.070;0.080;0.080;0.090;0.090;0.100;0.100;0.100;0.130;0.120;0.110;0.120;0.130;0.120;0.110;0.110;0.110;0.080;0.090;0.070;0.080;0.070;0.070;0.050;0.050;0.060;0.030;0.040;0.030;0.030;0.020;0.020;0.020;0.040;0.020;0.040;0.110;0.070;0.140;0.130;0.220;0.160;0.110;0.060;-0.050;-0.070;-0.070;-0.040;-0.030;-0.050;-0.050;-0.050;-0.030;0.190;0.490;0.870;-1.420;-1.830;-1.380;-1.140;-0.430;-0.050;-0.010;0.010;0.030;0.050;0.070;0.080;0.100;0.110;0.120;0.110;0.140;0.150;0.160;0.170;0.190;0.190;0.210;0.240;0.240;0.250;0.250;0.250;0.240;0.220;0.200;0.180;0.140;0.100;0.060;0.040;0.030;0.030;0.030;0.030;0.040;0.060;0.050;0.050;0.050;0.040;0.050;0.040;0.040;0.060;0.050;0.060;0.070;0.080;0.050;0.080;0.070;0.080;0.080;0.080;0.060;0.060;0.050;0.060;0.050;0.030;0.040;0.040;0.010;0.020;0.030;0.000;0.000;0.000;-0.010;-0.030;-0.020;-0.020;-0.030;-0.030;-0.020;-0.040;-0.030;0.000;0.030;0.000;0.050;0.060;0.150;0.090;0.020;-0.010;-0.130;-0.140;-0.140;-0.120;-0.110;-0.110;-0.120;-0.110;-0.120;0.120;0.410;0.770;-1.510;-1.850;-1.220;-1.040;-0.440;-0.040;-0.040;-0.030;0.000;0.030;0.020;0.050;0.060;0.070;0.070;0.090;0.080;0.100;0.120;0.120;0.120;0.140;0.150;0.160;0.170;0.160;0.170;0.170;0.140;0.130;0.120;0.080;0.060;0.030;0.000;-0.040;-0.030;-0.050;-0.030;-0.030;-0.020;-0.010;0.000;-0.010;0.010;0.010;0.000;0.010;-0.010;0.000;0.020;0.030;0.010;0.010;0.020;0.030;0.020;0.010;0.000;0.020;-0.010;0.000;-0.010;-0.010;-0.030;-0.010;-0.020;-0.040;-0.020;-0.030;-0.040;-0.050;-0.040;-0.050;-0.060;-0.060;-0.050;-0.050;-0.060;-0.050;-0.050;-0.060;-0.030;0.020;-0.030;0.050;0.040;0.140;0.080;0.010;-0.020;-0.140;-0.140;-0.150;-0.100;-0.100;-0.140;-0.120;-0.120;-0.150;0.130;0.450;0.740;-1.160;-1.590;-1.200;-0.920;-0.560;-0.140;-0.110;-0.090;-0.060;-0.050;-0.030;-0.040;0.000;-0.010;0.010;0.010;0.020;0.030;0.040;0.060;0.050;0.080;0.090;0.090;0.090;0.110;0.110;0.120;0.100;0.090;0.080;0.060;0.050;0.030;0.020;-0.020;-0.020;-0.030;-0.030;-0.030;-0.020;-0.010;0.000;0.000;0.010;0.010;0.010;0.010;0.010;0.020;0.000;0.010;0.000;0.020;0.010;0.020;0.010;-0.010;0.020;0.000;0.000;0.000;0.010;0.000;0.000;-0.010;-0.010;-0.010;-0.010;0.000;-0.020;-0.030;-0.020;-0.020;-0.020;-0.040;-0.040;-0.010;0.020;0.010;0.070;0.090;0.140;0.100;0.040;-0.030;-0.100;-0.110;-0.120;-0.110;-0.090;-0.120;-0.120;-0.120;-0.120;0.240;0.500;0.220;-1.770;-1.880;-1.210;-0.810;-0.410;-0.050;-0.040;-0.020;0.000;0.020;0.040;0.050;0.040;0.070;0.070;0.100;0.110;0.110;0.140;0.160;0.170;0.190;0.210;0.200;0.240;0.240;0.230;0.230;0.230;0.190;0.180;0.130;0.100;0.050;0.030;0.000;0.000;0.000;-0.010;0.000;0.000;0.000;0.010;0.000;-0.010;0.010;0.010;0.000;0.010;0.030;0.020;0.020;0.040;0.030;0.040;0.050;0.040;0.040;0.050;0.040;0.040;0.030;0.030;0.030;0.020;0.000;0.020;0.020;0.000;0.000;0.000;-0.010;-0.010;-0.010;-0.010;-0.010;-0.020;-0.020;-0.020;-0.020;-0.030;-0.010;0.020;0.020;0.040;0.090;0.120;0.150;0.050;0.010;-0.060;-0.110;-0.090;-0.090;-0.070;-0.070;-0.070;-0.070;-0.080;0.000;0.380;0.690;-0.800;-1.790;-1.590;-1.190;-0.480;-0.110;-0.030;-0.010;0.020;0.040;0.060;0.070;0.080;0.080;0.100;0.110;0.120;0.120;0.150;0.160;0.170;0.190;0.210;0.200;0.230;0.250;0.240;0.250;0.230;0.230;0.190;0.180;0.150;0.110;0.050;0.040;0.030;0.020;0.020;0.040;0.040;0.040;0.040;0.040;0.060;0.040;0.060;0.040;0.050;0.050;0.050;0.050;0.060;0.050;0.080;0.060;0.060;0.060;0.070;0.050;0.060;0.040;0.040;0.040;0.030;0.040;0.010;0.010;0.010;0.010;0.010;0.020;0.010;0.000;0.000;0.000;0.010;0.000;0.020;0.050;0.070;0.050;0.120;0.170;0.190;0.090;0.070;-0.030;-0.090;-0.080;-0.070;-0.070;-0.060;-0.070;-0.070;-0.080;-0.040;0.350;0.580;-0.300;-1.790;-1.740;-1.160;-0.560;-0.230;-0.020;-0.010;0.010;0.040;0.050;0.070;0.090;0.090;0.100;0.120;0.120;0.130;0.160;0.180;0.160;0.190;0.200;0.210;0.220;0.230;0.240;0.240;0.220;0.200;0.200;0.160;0.140;0.100;0.060;0.030;0.030;0.020;0.010;0.030;0.030;0.030;0.030;0.040;0.020;0.030;0.030;0.040;0.040;0.050;0.050;0.050;0.060;0.060;0.070;0.070;0.070;0.070;0.060;0.050;0.060;0.060;0.050;0.040;0.040;0.040;0.030;0.020;0.020;0.020;0.010;0.020;0.010;0.020;0.000;0.010;0.010;0.000;-0.010;0.060;0.060;0.060;0.080;0.200;0.110;0.090;0.040;-0.070;-0.100;-0.090;-0.080;-0.080;-0.090;-0.100;-0.090;-0.100;0.060;0.370;0.780;-1.110;-1.690;-1.280;-1.070;-0.510;-0.120;-0.080;-0.050;-0.020;-0.010;0.000;0.040;0.030;0.050;0.050;0.050;0.070;0.060;0.080;0.090;0.100;0.090;0.110;0.120;0.130;0.130;0.130;0.130;0.120;0.110;0.100;0.080;0.080;0.050;0.020;0.000;0.010;0.000;0.010;-0.010;0.010;0.010;0.020;0.010;0.030;0.020;0.020;0.020;0.020;0.040;0.040;0.040;0.040;0.030;0.020;0.030;0.030;0.030;0.020;0.010;0.000;0.000;-0.010;0.010;0.000;-0.020;-0.010;-0.020;-0.020;-0.030;-0.030;-0.030;-0.040;-0.050;-0.050;-0.040;0.020;-0.020;0.060;0.120;0.110;0.090;0.050;-0.040;-0.090;-0.100;-0.080;-0.100;-0.110;-0.100;-0.100;-0.110;-0.030;0.260;0.580;-0.280;-1.590;-1.400;-1.150;-0.620;-0.280;-0.050;-0.060;-0.020;0.010;0.010;0.030;0.050;0.050;0.070;0.080;0.090;0.090;0.110;0.140;0.160;0.160;0.200;0.210;0.240;0.250;0.260;0.260;0.260;0.240;0.230;0.190;0.160;0.130;0.080;0.060;0.040;0.030;0.040;0.050;0.050;0.060;0.060;0.060;0.060;0.070;0.070;0.080;0.080;0.060;0.080;0.070;0.080;0.080;0.090;0.080;0.070;0.060;0.070;0.070;0.060;0.060;0.060;0.060;0.050;0.050;0.040;0.040;0.030;0.040;0.030;0.040;0.030;0.030;0.030;0.040;0.020;0.030;0.080;0.070;0.130;0.120;0.230;0.160;0.110;0.050;-0.050;-0.060;-0.080;-0.050;-0.050;-0.070;-0.070;-0.060;-0.040;0.190;0.480;0.780;-1.530;-1.940;-1.360;-1.130;-0.440;-0.050;-0.030;-0.020;0.000;0.030;0.030;0.040;0.050;0.070;0.070;0.090;0.110;0.120;0.130;0.160;0.170;0.200;0.210;0.240;0.250;0.260;0.250;0.280;0.260;0.250;0.220;0.210;0.150;0.120;0.060;0.040;0.020;0.020;0.030;0.030;0.030;0.040;0.050;0.040;0.040;0.030;0.040;0.040;0.030;0.040;0.050;0.040;0.050;0.050;0.040;0.060;0.050;0.070;0.040;0.050;0.040;0.040;0.030;0.040;0.020;0.000;0.010;0.000;0.010;-0.020;-0.020;-0.010;-0.020;-0.020;-0.030;-0.030;-0.020;-0.030;-0.010;0.050;0.020;0.090;0.120;0.160;0.100;0.050;-0.030;-0.090;-0.110;-0.090;-0.110;-0.080;-0.110;-0.110;-0.110;-0.110;0.240;0.450;0.300;-1.810;-1.970;-1.200;-0.920;-0.420;-0.070;-0.070;-0.040;-0.020;0.000;0.010;0.020;0.020;0.050;0.050;0.050;0.070;0.090;0.110;0.110;0.150;0.150;0.170;0.180;0.180;0.210;0.200;0.180;0.180;0.170;0.130;0.130;0.090;0.050;0.020;0.010;-0.010;-0.020;-0.010;-0.010;0.000;0.000;0.020;-0.010;0.000;-0.010;-0.010;0.000;0.000;0.020;0.020;0.020;0.030;0.020;0.030;0.030;0.030;0.030;0.040;0.020;0.020;0.020;0.010;0.010;-0.010;-0.010;0.000;-0.010;-0.020;-0.030;-0.020;-0.030;-0.040;-0.040;-0.040;-0.050;-0.050;-0.050;-0.040;-0.030;0.020;-0.010;0.060;0.040;0.120;0.070;0.010;-0.050;-0.160;-0.170;-0.150;-0.120;-0.140;-0.130;-0.160;-0.140;-0.130;0.100;0.370;0.680;-1.570;-1.900;-1.320;-1.140;-0.550;-0.170;-0.140;-0.130;-0.120;-0.100;-0.090;-0.090;-0.090;-0.080;-0.080;-0.100;-0.080;-0.060;-0.070;-0.070;-0.050;-0.050;-0.070;-0.030;-0.040;-0.040;-0.060;-0.060;-0.080;-0.090;-0.100;-0.100;-0.120;-0.150;-0.150;-0.170;-0.170;-0.160;-0.150;-0.130;-0.110;-0.110;-0.100;-0.100;-0.090;-0.080;-0.070;-0.060;-0.070;-0.040;-0.040;-0.030;-0.020;-0.010;-0.020;0.000;-0.010;0.020;0.000;0.000;0.000;-0.010;-0.010;-0.010;-0.020;-0.040;-0.010;-0.010;-0.030;-0.040;-0.030;-0.050;-0.040;-0.030;-0.040;-0.040;-0.040;0.000;0.040;0.000;0.070;0.140;0.120;0.090;0.050;-0.030;-0.080;-0.110;-0.080;-0.090;-0.120;-0.110;-0.100;-0.120;-0.100;0.220;0.560;0.100;-1.540;-1.470;-1.160;-0.690;-0.380;-0.040;-0.060;-0.020;0.000;0.000;0.000;0.040;0.030;0.050;0.060;0.080;0.070;0.090;0.090;0.120;0.120;0.130;0.150;0.170;0.180;0.180;0.190;0.180;0.170;0.160;0.150;0.130;0.100;0.090;0.060;0.050;0.030;0.020;0.020;0.020;0.020;0.030;0.030;0.020;0.030;0.050;0.050;0.060;0.070;0.060;0.060;0.070;0.070;0.060;0.070;0.060;0.060;0.040;0.050;0.030;0.030;0.030;0.020;0.010;0.010;0.010;0.010;0.010;0.000;0.010;0.000;-0.020;-0.010;0.010;0.000;-0.010;0.000;0.010;0.070;0.050;0.120;0.110;0.210;0.150;0.090;0.040;-0.050;-0.070;-0.080;-0.060;-0.050;-0.060;-0.070;-0.060;-0.050;0.190;0.480;0.780;-1.560;-1.940;-1.380;-1.130;-0.420;-0.040;-0.010;0.010;0.030;0.040;0.080;0.090;0.080;0.100;0.120;0.140;0.130;0.160;0.180;0.190;0.210;0.230;0.250;0.260;0.270;0.300;0.300;0.290;0.300;0.280;0.260;0.240;0.210;0.150;0.130;0.100;0.080;0.080;0.080;0.070;0.090;0.070;0.100;0.080;0.080;0.070;0.090;0.070;0.070;0.080;0.070;0.080;0.080;0.090;0.090;0.090;0.100;0.100;0.090;0.080;0.100;0.080;0.060;0.050;0.050;0.030;0.030;0.020;0.030;-0.010;0.010;-0.010;0.000;-0.010;0.000;-0.020;-0.020;0.000;0.000;0.040;0.060;0.040;0.110;0.120;0.170;0.090;0.050;-0.020;-0.090;-0.100;-0.090;-0.080;-0.060;-0.090;-0.080;-0.090;-0.080;0.280;0.490;0.330;-1.810;-1.970;-1.170;-0.810;-0.330;-0.020;-0.030;0.010;0.040;0.060;0.060;0.080;0.080;0.110;0.100;0.110;0.110;0.140;0.150;0.160;0.170;0.180;0.190;0.220;0.220;0.230;0.230;0.230;0.220;0.200;0.180;0.150;0.120;0.070;0.050;0.020;0.010;0.010;0.000;0.020;0.020;0.030;0.030;0.020;0.020;0.030;0.030;0.020;0.040;0.050;0.040;0.050;0.070;0.070;0.070;0.060;0.080;0.050;0.080;0.060;0.080;0.060;0.060;0.050;0.040;0.030;0.040;0.050;0.030;0.030;0.030;0.030;0.010;0.020;0.010;0.010;0.000;0.010;-0.010;0.000;0.000;-0.010;0.050;0.040;0.060;0.100;0.150;0.150;0.050;0.010;-0.070;-0.130;-0.100;-0.100;-0.090;-0.080;-0.100;-0.080;-0.100;-0.050;0.330;0.560;-0.430;-1.850;-1.770;-1.200;-0.550;-0.220;-0.030;-0.040;0.000;0.010;0.050;0.050;0.060;0.060;0.080;0.080;0.090;0.090;0.120;0.120;0.140;0.150;0.160;0.180;0.170;0.190;0.200;0.200;0.180;0.180;0.150;0.120;0.110;0.050;0.030;0.020;-0.010;-0.020;-0.020;-0.010;0.010;0.000;0.020;0.030;0.030;0.020;0.030;0.020;0.040;0.030;0.050;0.050;0.030;0.050;0.050;0.060;0.040;0.060;0.040;0.040;0.030;0.030;0.000;0.020;0.010;0.010;0.000;-0.010;-0.010;-0.010;-0.020;-0.010;-0.020;-0.030;-0.030;-0.040;-0.030;-0.040;-0.020;0.020;0.010;0.070;0.080;0.160;0.130;0.070;0.030;-0.070;-0.100;-0.090;-0.070;-0.070;-0.100;-0.080;-0.080;-0.080;0.140;0.440;0.770;-1.000;-1.620;-1.240;-1.020;-0.530;-0.090;-0.060;-0.030;-0.010;0.020;0.020;0.040;0.040;0.050;0.050;0.070;0.070;0.080;0.100;0.090;0.100;0.130;0.140;0.130;0.140;0.150;0.150;0.150;0.130;0.130;0.100;0.100;0.070;0.040;0.010;0.010;0.000;-0.010;-0.020;-0.010;-0.020;0.000;-0.020;0.000;0.010;0.010;0.020;0.020;0.020;0.020;0.030;0.030;0.030;0.030;0.040;0.040;0.040;0.050;0.030;0.020;0.030;0.030;0.030;0.020;0.010;0.020;0.010;0.010;0.000;0.020;0.000;0.000;-0.010;0.000;-0.010;0.000;-0.010;-0.010;0.030;0.060;0.050;0.080;0.160;0.140;0.060;0.050;-0.050;-0.100;-0.100;-0.070;-0.090;-0.090;-0.090;-0.080;-0.080;0.060;0.400;0.710;-0.910;-1.770;-1.520;-1.190;-0.540;-0.150;-0.020;0.010;0.020;0.070;0.080;0.080;0.110;0.130;0.130;0.150;0.170;0.160;0.190;0.210;0.210;0.250;0.260;0.290;0.310;0.300;0.320;0.310;0.300;0.280;0.270;0.240;0.180;0.160;0.100;0.090;0.060;0.080;0.070;0.070;0.060;0.070;0.080;0.080;0.080;0.080;0.080;0.080;0.090;0.080;0.100;0.100;0.130;0.100;0.100;0.100;0.110;0.100;0.100;0.090;0.080;0.070;0.060;0.070;0.060;0.050;0.050;0.040;0.040;0.050;0.040;0.020;0.030;0.020;0.020;0.020;0.020;0.020;0.010;0.040;0.090;0.050;0.130;0.120;0.210;0.090;0.060;-0.010;-0.100;-0.100;-0.080;-0.070;-0.060;-0.080;-0.070;-0.070;-0.050;0.270;0.490;0.500;-1.790;-1.980;-1.160;-0.900;-0.360;-0.010;-0.010;0.010;0.040;0.070;0.070;0.090;0.110;0.100;0.110;0.140;0.140;0.160;0.170;0.170;0.200;0.200;0.230;0.250;0.260;0.250;0.260;0.260;0.220;0.230;0.190;0.170;0.130;0.090;0.060;0.030;0.020;0.010;0.020;0.010;0.040;0.040;0.040;0.040;0.040;0.050;0.040;0.060;0.060;0.050;0.060;0.080;0.070;0.090;0.090;0.100;0.090;0.080;0.090;0.080;0.070;0.080;0.070;0.060;0.040;0.050;0.040;0.030;0.030;0.020;0.020;0.010;0.020;0.010;0.020;-0.010;0.020;0.000;0.000;0.010;0.010;0.000;-0.010;0.050;0.060;0.030;0.110;0.130;0.160;0.060;0.010;-0.040;-0.130;-0.110;-0.110;-0.100;-0.090;-0.100;-0.090;-0.100;-0.080;0.310;0.510;-0.180;-1.860;-1.860;-1.180;-0.660;-0.270;-0.020;-0.040;0.010;0.030;0.040;0.060;0.070;0.080;0.090;0.100;0.120;0.120;0.130;0.150;0.170;0.160;0.190;0.220;0.220;0.240;0.240;0.240;0.230;0.230;0.210;0.200;0.170;0.140;0.090;0.060;0.040;0.040;0.020;0.020;0.040;0.050;0.050;0.050;0.050;0.040;0.030;0.050;0.040;0.040;0.050;0.050;0.050;0.050;0.070;0.040;0.060;0.050;0.050;0.040;0.030;0.050;0.030;0.030;0.030;0.030;0.010;-0.030;0.010;-0.010;-0.030;-0.010;-0.020;-0.030;-0.020;-0.040;-0.020;-0.030;-0.030;-0.040;-0.010;0.020;-0.020;0.060;0.050;0.140;0.080;0.030;-0.040;-0.120;-0.130;-0.140;-0.110;-0.100;-0.120;-0.120;-0.110;-0.110;0.170;0.480;0.670;-1.480;-1.730;-1.170;-0.910;-0.470;-0.080;-0.090;-0.050;-0.020;0.000;0.020;0.030;0.010;0.050;0.060;0.060;0.070;0.080;0.080;0.100;0.110;0.120;0.110;0.130;0.140;0.140;0.150;0.130;0.130;0.120;0.120;0.090;0.060;0.030;0.020;0.010;0.000;0.020;-0.010;0.020;0.000;0.010;0.010;0.010;-0.010;0.020;0.000;0.010;0.010;0.010;0.010;0.020;0.010;0.020;0.020;0.010;0.010;0.010;-0.010;0.010;-0.010;-0.030;-0.010;-0.030;-0.040;-0.040;-0.040;-0.040;-0.040;-0.050;-0.040;-0.050;-0.060;-0.040;-0.070;-0.050;-0.020;0.030;-0.010;0.060;0.060;0.140;0.100;0.060;-0.010;-0.100;-0.100;-0.110;-0.100;-0.110;-0.120;-0.110;-0.120;
